,time,concentration,theta,etheta
0,1.2e-06,0.0,0.45702551883210957,0.016737145240114715
1,2.64e-06,0.0,0.4850209267225342,0.043030095595079636
2,4.36799e-06,0.0,0.5126657337716424,0.09310377173967296
3,6.44159e-06,0.0,0.5403313274318957,0.17019096527715158
4,8.9299e-06,0.0,0.5671945579019423,0.27370584843796036
5,1.19159e-05,0.0,0.5956029264671193,0.42251024084469335
6,1.5499e-05,0.0,0.6225784046373503,0.6264005654339142
7,1.97988e-05,0.0,0.6498518242339966,0.8757157537852253
8,2.49586e-05,0.0,0.6775132605720209,1.1485557807726687
9,3.11503e-05,0.0,0.7057719655369521,1.4425938910770268
10,3.85804e-05,0.0,0.7327779307368628,1.7015293177674127
11,4.74965e-05,0.0,0.7611558122723601,1.9350773829339263
12,5.81957e-05,0.0,0.7884292318690064,2.0605431889933006
13,7.10348e-05,0.0,0.8160906682070307,2.0468679083310692
14,8.64419e-05,0.0,0.8443493731719619,1.96325013904667
15,0.00010493,0.0,0.8713553383718726,1.8843865573135576
16,0.000127116,0.0,0.8997332199073699,1.7567953497606668
17,0.000153739,0.0,0.9269595231854203,1.6477063215250198
18,0.000185687,0.0,0.9544061645416103,1.481762803337806
19,0.000224022,0.0,0.9815382351824689,1.3288457590411187
20,0.000270025,0.0,1.0099147309438898,1.2241529559999558
21,0.000325225,0.0,1.0372879262740333,1.1003371326789693
22,0.000391469,0.0,1.0655840471390259,0.9844244470167692
23,0.000470961,0.0,1.0932454834770502,0.8560781626174976
24,0.000566346,0.0,1.1202223474213575,0.7509714656012814
25,0.000680816,0.0,1.1485129251900448,0.661413758458686
26,0.00081818,0.0,1.1758667196831194,0.6029931831961074
27,0.000983035,0.0,1.2029322731683134,0.5341346493356327
28,0.00118082,0.0,1.2305410500914362,0.4715650666312368
29,0.00141813,0.0,1.2587858973156039,0.4259668148525702
30,0.00170287,0.0,1.2858625369934082,0.3827495720628246
31,0.00204464,0.0,1.314444127318129,0.3555366025192583
32,0.00245482,0.0,1.3415096808033231,0.3237786296766617
33,0.00294695,0.0,1.3691184577264461,0.29121636016362384
34,0.00353727,0.0,1.3973730053691482,0.2636896142416726
35,0.00424549,0.0,1.4244371730802654,0.24255249638865098
36,0.00509584,0.0,1.4530256922753682,0.22420972218342103
37,0.00611626,0.0,1.4800898599864856,0.20939343650888098
38,0.00734178,0.0,1.5076944795873792,0.19025587400831237
39,0.0088124,-2.05167e-313,1.535950413004158,0.17014566066636871
40,0.0105793,-2.08628e-284,1.5630145807152753,0.16084591049986902
41,0.012698,8.35053e-252,1.5905776270938787,0.14735688212641174
42,0.015236,-2.51271e-214,1.6186118366584412,0.13981338477297567
43,0.0182848,2.18564e-177,1.6460917365924637,0.12705594196623413
44,0.0219342,5.58082e-140,1.673322197192743,0.11358145581352198
45,0.0263201,3.03268e-106,1.701591988350285,0.10887984398339048
46,0.0315832,-3.58021e-78,1.7291550347288884,0.09977529516458478
47,0.0376666,-2.83272e-59,1.757244675256505,0.09464245055774241
48,0.0444656,1.59502e-47,1.784738432931291,0.08618950509155428
49,0.0516963,4.2588e-42,1.8120520399761515,0.07754135827767213
50,0.058701,8.69235e-39,1.8402802579114028,0.07437003552287251
51,0.0658188,-1.52249e-38,1.867801731067716,0.06896424461896802
52,0.0733046,-5.7538e-37,1.8957805096692244,0.06567099093638244
53,0.0815103,-3.04667e-36,1.9232465518624833,0.06070370391956138
54,0.0906079,-8.10366e-36,1.9504770124627626,0.05532744491009313
55,0.101105,-1.23237e-35,1.9787468036203046,0.053627235578516425
56,0.113571,0.0,2.006309849998908,0.050152148204998685
57,0.124936,0.0,2.034399490526525,0.04815589281802244
58,0.129871,0.0,2.0620041101274182,0.045110695862377544
59,0.133894,0.0,2.0891098510608264,0.04127250042317799
60,0.137415,0.0,2.1173242112553146,0.039979920725410456
61,0.140681,0.0,2.144887257633918,0.03773549674825702
62,0.143779,0.0,2.1729768981615343,0.03639168368817208
63,0.146772,0.0,2.200581517762428,0.03440901968443069
64,0.14974,0.0,2.2276734009550725,0.03182408401536862
65,0.152684,0.0,2.255901618890324,0.030887676862619846
66,0.155652,0.0,2.283464665268928,0.029331994832602272
67,0.158673,0.0,2.3115543057965438,0.028342732300606834
68,0.161804,0.0,2.339158925397438,0.026979622832225502
69,0.165056,0.0,2.3662646663308458,0.02516503334132666
70,0.168509,0.0,2.394479026525334,0.024428973245150944
71,0.172234,0.0,2.422042072903938,0.023320072981717836
72,0.176383,0.0,2.4501317134315537,0.022596541568030218
73,0.181006,3.0079e-55,2.477736333032448,0.021630714384081717
74,0.186235,-1.28872e-54,2.5048420739658557,0.020323145012623063
75,0.192269,-1.41169e-52,2.533056434160344,0.019747552729207845
76,0.199426,-3.76111e-42,2.5606194805389473,0.01891277332682011
77,0.207775,-2.8461e-41,2.5887229788073274,0.018344340290540946
78,0.217202,-1.09605e-37,2.6164107448528022,0.017610461527476997
79,0.226953,-6.64655e-39,2.6441677996020947,0.01676175515214491
80,0.235228,2.08386e-35,2.6718832811290967,0.016277275474859645
81,0.242792,-1.76745e-34,2.6992384613962477,0.015606543508800435
82,0.249937,-1.8474e-33,2.7272588132200464,0.015126762087448212
83,0.256883,-8.51598e-33,2.7547109976725417,0.014537690284034639
84,0.263829,-2.85818e-32,2.7818860273097674,0.013723605580399565
85,0.270986,-4.70125e-32,2.8101973916896,0.01344713559138767
86,0.278883,9.57046e-33,2.837774295808967,0.012905214142159213
87,0.287728,2.58174e-31,2.865863936336583,0.012519509702704216
88,0.297836,5.43589e-31,2.8934685559374773,0.012053263732968595
89,0.309728,1.46294e-31,2.920560439130121,0.011430800753459513
90,0.323319,0.0,2.948788657065373,0.0111138362728343
91,0.328673,0.0,2.9763517034439766,0.01067208835189237
92,0.332852,0.0,3.004441343971593,0.010362562776494466
93,0.336485,0.0,3.032045963572487,0.009983458267993022
94,0.339822,0.0,3.059137846765131,0.009480129635357364
95,0.342963,0.0,3.0873660647003827,0.00921674764501607
96,0.345983,0.0,3.1149291110789865,0.00885375144257075
97,0.348945,0.0,3.1430187516066024,0.008594340597125237
98,0.351907,0.0,3.1706233712074967,0.008281067603304553
99,0.354869,0.0,3.197715254400141,0.007856322894310755
100,0.357892,0.0,3.2259434723353926,0.0076389726257895686
101,0.360981,0.0,3.2535065187139964,0.007339906263004496
102,0.364214,0.0,3.2815961592416123,0.00712540850701408
103,0.367609,0.0,3.3092007788425066,0.006862362106382289
104,0.371287,0.0,3.3363065197759143,0.006516089457793849
105,0.375309,0.0,3.3645208799704025,0.006327599904289885
106,0.379762,3.78388e-45,3.3920839263490064,0.006080549946477718
107,0.384772,8.60421e-45,3.420173566876622,0.005897933212890049
108,0.390533,3.34302e-44,3.447778186477516,0.005678121953165842
109,0.397375,2.9948e-39,,
110,0.405269,-1.03796e-36,,
111,0.414742,1.33266e-33,,
112,0.4254,2.0422e-31,,
113,0.433689,1.44019e-30,,
114,0.441056,6.8035e-30,,
115,0.448424,2.9875e-29,,
116,0.455792,1.17122e-28,,
117,0.46316,4.05671e-28,,
118,0.470528,1.12381e-27,,
119,0.477896,2.34944e-27,,
120,0.485264,3.79525e-27,,
121,0.492632,5.00203e-27,,
122,0.5,5.6301e-27,,
123,0.508772,2.85718e-27,,
124,0.519224,0.0,,
125,0.526508,0.0,,
126,0.531196,0.0,,
127,0.535039,0.0,,
128,0.538483,0.0,,
129,0.541688,0.0,,
130,0.544743,0.0,,
131,0.547719,0.0,,
132,0.550656,0.0,,
133,0.553612,0.0,,
134,0.556588,0.0,,
135,0.559646,0.0,,
136,0.562791,0.0,,
137,0.566103,0.0,,
138,0.569631,0.0,,
139,0.57344,0.0,,
140,0.577663,-2.02168e-41,,
141,0.582408,-3.02338e-41,,
142,0.587762,-4.51687e-41,,
143,0.594008,-3.67977e-40,,
144,0.60139,4.07004e-33,,
145,0.610055,-7.9358e-31,,
146,0.619804,-2.74774e-29,,
147,0.629077,-3.9599e-28,,
148,0.637141,-5.0335e-27,,
149,0.644546,-3.37597e-26,,
150,0.651515,-1.64159e-25,,
151,0.658349,-6.45418e-25,,
152,0.665321,-2.12555e-24,,
153,0.672597,-5.81585e-24,,
154,0.680582,-1.3411e-23,,
155,0.689455,-2.40926e-23,,
156,0.699472,-3.20341e-23,,
157,0.711493,-1.30749e-24,,
158,0.725232,0.0,,
159,0.730138,0.0,,
160,0.734107,0.0,,
161,0.737652,0.0,,
162,0.740891,0.0,,
163,0.743976,0.0,,
164,0.746988,0.0,,
165,0.749964,0.0,,
166,0.752941,0.0,,
167,0.755918,0.0,,
168,0.758969,0.0,,
169,0.762099,0.0,,
170,0.765403,0.0,,
171,0.768905,0.0,,
172,0.772693,0.0,,
173,0.776902,0.0,,
174,0.78155,4.48588e-38,,
175,0.786751,4.32471e-38,,
176,0.792844,3.90154e-36,,
177,0.800243,-2.69108e-30,,
178,0.808928,-9.66648e-28,,
179,0.818984,-3.81019e-25,,
180,0.828511,-4.42091e-24,,
181,0.836678,-1.87666e-23,,
182,0.844101,-5.29266e-23,,
183,0.851188,-9.65398e-23,,
184,0.857952,-4.25555e-23,,
185,0.865054,5.62016e-22,,
186,0.872551,3.12793e-21,,
187,0.880517,9.31333e-21,,
188,0.889708,1.97996e-20,,
189,0.899734,2.76285e-20,,
190,0.912268,0.0,,
191,0.924801,0.0,,
192,0.929814,0.0,,
193,0.933943,0.0,,
194,0.937419,0.0,,
195,0.940713,0.0,,
196,0.943833,0.0,,
197,0.94679,0.0,,
198,0.949746,0.0,,
199,0.952702,0.0,,
200,0.955658,0.0,,
201,0.958614,0.0,,
202,0.961798,0.0,,
203,0.964981,0.0,,
204,0.968483,0.0,,
205,0.972423,0.0,,
206,0.976362,0.0,,
207,0.98109,-3.06627e-35,,
208,0.985817,3.26509e-35,,
209,0.990545,9.60353e-34,,
210,0.995272,-1.96279e-30,,
211,1.0,4.8912e-28,,
212,1.00568,5.98747e-27,,
213,1.01245,2.20547e-25,,
214,1.02032,1.28656e-22,,
215,1.02904,2.81266e-21,,
216,1.03716,1.8618e-20,,
217,1.04451,7.55396e-20,,
218,1.05151,2.54495e-19,,
219,1.05841,7.69949e-19,,
220,1.06542,2.0779e-18,,
221,1.07279,5.06328e-18,,
222,1.08085,1.06742e-17,,
223,1.08977,1.80898e-17,,
224,1.10002,2.31167e-17,,
225,1.11214,0.0,,
226,1.12552,0.0,,
227,1.13032,0.0,,
228,1.13425,0.0,,
229,1.13777,0.0,,
230,1.14103,0.0,,
231,1.14413,0.0,,
232,1.14714,0.0,,
233,1.15011,0.0,,
234,1.15307,0.0,,
235,1.15606,0.0,,
236,1.15911,0.0,,
237,1.16226,0.0,,
238,1.16557,0.0,,
239,1.16909,0.0,,
240,1.1729,0.0,,
241,1.17715,0.0,,
242,1.18189,2.4731e-32,,
243,1.18729,4.9023e-32,,
244,1.19354,-1.96398e-29,,
245,1.20101,1.57077e-24,,
246,1.20981,4.87077e-22,,
247,1.21981,2.43576e-19,,
248,1.22915,2.81468e-18,,
249,1.23712,1.21812e-17,,
250,1.24442,3.90281e-17,,
251,1.25152,1.10467e-16,,
252,1.25842,2.76267e-16,,
253,1.26533,6.2673e-16,,
254,1.27266,1.32302e-15,,
255,1.28078,2.51685e-15,,
256,1.28991,3.99307e-15,,
257,1.30042,4.88135e-15,,
258,1.31289,0.0,,
259,1.32537,0.0,,
260,1.33022,0.0,,
261,1.33416,0.0,,
262,1.33769,0.0,,
263,1.34094,0.0,,
264,1.34406,0.0,,
265,1.34706,0.0,,
266,1.35,0.0,,
267,1.35294,0.0,,
268,1.35594,0.0,,
269,1.35901,0.0,,
270,1.36214,0.0,,
271,1.36542,0.0,,
272,1.36887,0.0,,
273,1.37262,0.0,,
274,1.37673,0.0,,
275,1.38129,-2.04515e-29,,
276,1.38645,-2.32672e-29,,
277,1.39243,-1.54489e-27,,
278,1.3996,1.4597e-22,,
279,1.40797,-1.46647e-20,,
280,1.41717,1.16191e-17,,
281,1.42637,2.16801e-16,,
282,1.43456,1.12398e-15,,
283,1.44183,3.5474e-15,,
284,1.4491,9.89632e-15,,
285,1.45637,2.4798e-14,,
286,1.46364,5.54876e-14,,
287,1.47091,1.09743e-13,,
288,1.47819,1.88687e-13,,
289,1.48546,2.81054e-13,,
290,1.49273,3.64045e-13,,
291,1.5,4.12939e-13,,
292,1.50877,1.90099e-13,,
293,1.51922,0.0,,
294,1.52651,0.0,,
295,1.5312,0.0,,
296,1.53504,0.0,,
297,1.53848,0.0,,
298,1.54169,0.0,,
299,1.54474,0.0,,
300,1.54772,0.0,,
301,1.55066,0.0,,
302,1.55361,0.0,,
303,1.55659,0.0,,
304,1.55962,0.0,,
305,1.56277,0.0,,
306,1.56606,0.0,,
307,1.56956,0.0,,
308,1.57337,0.0,,
309,1.57759,-2.20508e-27,,
310,1.58228,-2.78747e-27,,
311,1.58757,-2.93863e-27,,
312,1.59373,2.1908e-24,,
313,1.60111,8.50547e-21,,
314,1.60979,9.15535e-18,,
315,1.61954,3.14724e-15,,
316,1.62882,3.44884e-14,,
317,1.63689,1.39573e-13,,
318,1.6443,3.95539e-13,,
319,1.65127,9.17202e-13,,
320,1.65811,1.90199e-12,,
321,1.66509,3.66585e-12,,
322,1.67237,6.56262e-12,,
323,1.68036,1.08458e-11,,
324,1.68924,1.5702e-11,,
325,1.69926,1.88175e-11,,
326,1.71129,3.27161e-13,,
327,1.72504,0.0,,
328,1.72995,0.0,,
329,1.73392,0.0,,
330,1.73747,0.0,,
331,1.74075,0.0,,
332,1.74388,0.0,,
333,1.74689,0.0,,
334,1.74987,0.0,,
335,1.75284,0.0,,
336,1.75582,0.0,,
337,1.75887,0.0,,
338,1.76201,0.0,,
339,1.76531,0.0,,
340,1.76881,0.0,,
341,1.7726,0.0,,
342,1.77682,0.0,,
343,1.78147,3.53938e-25,,
344,1.78667,2.04082e-24,,
345,1.79259,2.51371e-22,,
346,1.79975,9.93628e-20,,
347,1.80809,2.88898e-17,,
348,1.81769,7.261e-14,,
349,1.82728,1.06977e-12,,
350,1.83551,4.45686e-12,,
351,1.84298,1.23742e-11,,
352,1.85012,2.81133e-11,,
353,1.85693,5.51101e-11,,
354,1.86375,9.91205e-11,,
355,1.87092,1.68429e-10,,
356,1.87851,2.64407e-10,,
357,1.88719,3.8055e-10,,
358,1.89659,4.68589e-10,,
359,1.90808,3.2329e-10,,
360,1.92121,0.0,,
361,1.92727,0.0,,
362,1.93182,0.0,,
363,1.9356,0.0,,
364,1.93899,0.0,,
365,1.9422,0.0,,
366,1.94525,0.0,,
367,1.94829,0.0,,
368,1.95116,0.0,,
369,1.95421,0.0,,
370,1.95727,0.0,,
371,1.96032,0.0,,
372,1.96363,0.0,,
373,1.96693,0.0,,
374,1.97061,0.0,,
375,1.97481,0.0,,
376,1.979,6.78801e-24,,
377,1.98425,1.43673e-23,,
378,1.9895,8.86712e-22,,
379,1.99475,3.05356e-20,,
380,2.0,6.86898e-19,,
381,2.00633,-4.5253e-16,,
382,2.01381,1.03894e-13,,
383,2.02234,5.13579e-12,,
384,2.03118,4.50355e-11,,
385,2.039,1.54403e-10,,
386,2.0462,3.72396e-10,,
387,2.05318,7.54652e-10,,
388,2.06006,1.36077e-09,,
389,2.06715,2.28677e-09,,
390,2.07462,3.58808e-09,,
391,2.08296,5.2562e-09,,
392,2.09222,6.8423e-09,,
393,2.10295,7.47143e-09,,
394,2.11576,0.0,,
395,2.12491,0.0,,
396,2.12991,0.0,,
397,2.13394,0.0,,
398,2.13745,0.0,,
399,2.14072,0.0,,
400,2.14382,0.0,,
401,2.14681,0.0,,
402,2.14978,0.0,,
403,2.15272,0.0,,
404,2.15569,0.0,,
405,2.15874,0.0,,
406,2.16187,0.0,,
407,2.16515,0.0,,
408,2.16864,0.0,,
409,2.1724,0.0,,
410,2.17655,0.0,,
411,2.18117,-1.42898e-22,,
412,2.1864,2.4402e-20,,
413,2.19243,2.08364e-20,,
414,2.19958,-4.05647e-17,,
415,2.20793,3.47937e-14,,
416,2.21735,3.05883e-11,,
417,2.2271,4.42163e-10,,
418,2.23537,1.68083e-09,,
419,2.24293,4.26656e-09,,
420,2.25007,8.67793e-09,,
421,2.25701,1.54396e-08,,
422,2.26395,2.51552e-08,,
423,2.27111,3.83526e-08,,
424,2.279,5.56212e-08,,
425,2.28784,7.44082e-08,,
426,2.29794,8.78738e-08,,
427,2.30983,4.15324e-08,,
428,2.32341,0.0,,
429,2.32876,0.0,,
430,2.33294,0.0,,
431,2.33657,0.0,,
432,2.33991,0.0,,
433,2.34304,0.0,,
434,2.34606,0.0,,
435,2.34902,0.0,,
436,2.35198,0.0,,
437,2.35494,0.0,,
438,2.35797,0.0,,
439,2.36105,0.0,,
440,2.36429,0.0,,
441,2.36768,0.0,,
442,2.37135,0.0,,
443,2.37537,0.0,,
444,2.37982,-2.25045e-20,,
445,2.38483,-5.55826e-20,,
446,2.39059,-6.21194e-19,,
447,2.39743,-1.78278e-17,,
448,2.40532,-2.11117e-13,,
449,2.41479,1.68424e-10,,
450,2.42544,4.56233e-09,,
451,2.43372,1.65001e-08,,
452,2.44109,3.98345e-08,,
453,2.44845,8.16673e-08,,
454,2.45582,1.46777e-07,,
455,2.46318,2.38086e-07,,
456,2.47054,3.54247e-07,,
457,2.47791,4.86533e-07,,
458,2.48527,6.17896e-07,,
459,2.49264,7.26673e-07,,
460,2.5,7.92012e-07,,
461,2.50877,6.28235e-07,,
462,2.51922,0.0,,
463,2.52651,0.0,,
464,2.5312,0.0,,
465,2.53504,0.0,,
466,2.53848,0.0,,
467,2.54169,0.0,,
468,2.54474,0.0,,
469,2.54772,0.0,,
470,2.55066,0.0,,
471,2.55361,0.0,,
472,2.55659,0.0,,
473,2.55965,0.0,,
474,2.56279,0.0,,
475,2.5661,0.0,,
476,2.56963,0.0,,
477,2.57344,0.0,,
478,2.57766,-4.42603e-19,,
479,2.58241,-4.88262e-19,,
480,2.58776,-2.5045e-18,,
481,2.59401,-1.57222e-17,,
482,2.60139,-3.30932e-13,,
483,2.61006,1.02156e-10,,
484,2.6198,9.74016e-09,,
485,2.62908,7.24548e-08,,
486,2.63714,2.24815e-07,,
487,2.64455,4.9066e-07,,
488,2.65152,8.74952e-07,,
489,2.65835,1.38878e-06,,
490,2.66532,2.05061e-06,,
491,2.6726,2.85949e-06,,
492,2.68058,3.797e-06,,
493,2.68945,4.70385e-06,,
494,2.69947,5.2743e-06,,
495,2.71149,2.54634e-07,,
496,2.72523,0.0,,
497,2.73014,0.0,,
498,2.73411,0.0,,
499,2.73765,0.0,,
500,2.74089,0.0,,
501,2.74398,0.0,,
502,2.74699,0.0,,
503,2.74996,0.0,,
504,2.75294,0.0,,
505,2.75592,0.0,,
506,2.75897,0.0,,
507,2.7621,0.0,,
508,2.7654,0.0,,
509,2.7689,0.0,,
510,2.77269,0.0,,
511,2.7769,0.0,,
512,2.78155,-1.55239e-18,,
513,2.78675,-9.85904e-18,,
514,2.79284,-2.49539e-17,,
515,2.80024,-4.27371e-13,,
516,2.80893,3.13475e-10,,
517,2.81848,4.02737e-08,,
518,2.82804,3.74303e-07,,
519,2.83622,1.20616e-06,,
520,2.84367,2.64437e-06,,
521,2.85077,4.73064e-06,,
522,2.85756,7.35998e-06,,
523,2.86468,1.07366e-05,,
524,2.8718,1.45436e-05,,
525,2.87981,1.89436e-05,,
526,2.88906,2.3253e-05,,
527,2.89914,2.58695e-05,,
528,2.91175,2.84162e-07,,
529,2.92646,0.0,,
530,2.93106,0.0,,
531,2.93489,0.0,,
532,2.93831,0.0,,
533,2.94156,0.0,,
534,2.94464,0.0,,
535,2.94771,0.0,,
536,2.95062,0.0,,
537,2.95352,0.0,,
538,2.95662,0.0,,
539,2.95972,0.0,,
540,2.96282,0.0,,
541,2.9662,0.0,,
542,2.96995,0.0,,
543,2.97371,0.0,,
544,2.97809,1.33933e-17,,
545,2.98357,1.32706e-17,,
546,2.98905,1.24046e-17,,
547,2.99452,-1.46489e-16,,
548,3.0,1.04856e-13,,
549,3.00658,-5.80813e-11,,
550,3.01429,1.48617e-08,,
551,3.02296,4.14103e-07,,
552,3.0318,2.57361e-06,,
553,3.0396,7.16163e-06,,
554,3.04679,1.42732e-05,,
555,3.05377,2.38261e-05,,
556,3.06074,3.5583e-05,,
557,3.06782,4.90873e-05,,
558,3.07541,6.416e-05,,
559,3.08373,7.94458e-05,,
560,3.09298,9.18518e-05,,
561,3.10369,9.57822e-05,,
562,3.11648,0.0,,
563,3.12519,0.0,,
564,3.13006,0.0,,
565,3.13404,0.0,,
566,3.13756,0.0,,
567,3.14079,0.0,,
568,3.14389,0.0,,
569,3.14688,0.0,,
570,3.14985,0.0,,
571,3.15279,0.0,,
572,3.15576,0.0,,
573,3.15881,0.0,,
574,3.16194,0.0,,
575,3.16522,0.0,,
576,3.16871,0.0,,
577,3.17247,0.0,,
578,3.17662,0.0,,
579,3.18124,6.63534e-17,,
580,3.18646,8.83696e-17,,
581,3.19249,-6.24108e-17,,
582,3.19964,-8.27737e-13,,
583,3.20799,7.61877e-10,,
584,3.21741,4.08371e-07,,
585,3.22715,4.97598e-06,,
586,3.23542,1.68863e-05,,
587,3.24298,3.78245e-05,,
588,3.25012,6.69711e-05,,
589,3.25706,0.000102534,,
590,3.264,0.000142777,,
591,3.27115,0.000186132,,
592,3.27904,0.000231795,,
593,3.28788,0.000273375,,
594,3.29798,0.000299243,,
595,3.30987,0.000139682,,
596,3.32345,0.0,,
597,3.3288,0.0,,
598,3.33297,0.0,,
599,3.3366,0.0,,
600,3.33994,0.0,,
601,3.34308,0.0,,
602,3.34609,0.0,,
603,3.34905,0.0,,
604,3.35201,0.0,,
605,3.35497,0.0,,
606,3.35799,0.0,,
607,3.36108,0.0,,
608,3.36431,0.0,,
609,3.3677,0.0,,
610,3.37138,0.0,,
611,3.3754,0.0,,
612,3.37985,3.45357e-16,,
613,3.38486,5.02857e-16,,
614,3.39061,1.05435e-15,,
615,3.39745,-1.15807e-13,,
616,3.40534,-6.21376e-10,,
617,3.4148,4.86172e-07,,
618,3.42545,1.18862e-05,,
619,3.43374,4.05619e-05,,
620,3.4411,9.09919e-05,,
621,3.44846,0.000168272,,
622,3.45582,0.000266592,,
623,3.46319,0.000376587,,
624,3.47055,0.000488556,,
625,3.47791,0.000593172,,
626,3.48527,0.000681425,,
627,3.49264,0.00074542,,
628,3.5,0.000769334,,
629,3.50877,0.000492103,,
630,3.51922,0.0,,
631,3.52651,0.0,,
632,3.5312,0.0,,
633,3.53504,0.0,,
634,3.53848,0.0,,
635,3.54169,0.0,,
636,3.54474,0.0,,
637,3.54772,0.0,,
638,3.55067,0.0,,
639,3.55363,0.0,,
640,3.55661,0.0,,
641,3.55966,0.0,,
642,3.56281,0.0,,
643,3.56612,0.0,,
644,3.56965,0.0,,
645,3.57346,0.0,,
646,3.57768,1.5065e-15,,
647,3.58243,1.52799e-15,,
648,3.58778,2.83723e-15,,
649,3.59403,-3.86575e-14,,
650,3.60141,-2.0294e-10,,
651,3.61007,6.38485e-08,,
652,3.61982,6.60222e-06,,
653,3.62909,4.82736e-05,,
654,3.63716,0.000144489,,
655,3.64456,0.000298197,,
656,3.65153,0.000494167,,
657,3.65836,0.000716977,,
658,3.66534,0.000954021,,
659,3.67261,0.00119051,,
660,3.6806,0.00141449,,
661,3.68947,0.00159426,,
662,3.69949,0.0016646,,
663,3.71151,3.62573e-05,,
664,3.72524,0.0,,
665,3.73006,0.0,,
666,3.73403,0.0,,
667,3.73758,0.0,,
668,3.74086,0.0,,
669,3.74395,0.0,,
670,3.74696,0.0,,
671,3.74993,0.0,,
672,3.75291,0.0,,
673,3.75589,0.0,,
674,3.75894,0.0,,
675,3.76207,0.0,,
676,3.76537,0.0,,
677,3.76888,0.0,,
678,3.77267,0.0,,
679,3.77688,0.0,,
680,3.78152,9.87184e-15,,
681,3.78673,1.91264e-14,,
682,3.79282,-8.82426e-15,,
683,3.80022,-9.53907e-11,,
684,3.8089,4.76005e-08,,
685,3.81846,7.8546e-06,,
686,3.82801,7.59763e-05,,
687,3.8362,0.000244331,,
688,3.84365,0.000522785,,
689,3.85076,0.000893735,,
690,3.85754,0.00130813,,
691,3.86466,0.00176063,,
692,3.87179,0.00218853,,
693,3.8798,0.00259675,,
694,3.88905,0.00292571,,
695,3.89913,0.00304284,,
696,3.91174,1.01601e-05,,
697,3.92645,0.0,,
698,3.93105,0.0,,
699,3.93488,0.0,,
700,3.93831,0.0,,
701,3.94155,0.0,,
702,3.94463,0.0,,
703,3.94771,0.0,,
704,3.95061,0.0,,
705,3.95352,0.0,,
706,3.95661,0.0,,
707,3.95971,0.0,,
708,3.96281,0.0,,
709,3.96619,0.0,,
710,3.96995,0.0,,
711,3.97371,0.0,,
712,3.97809,6.0466e-14,,
713,3.98357,9.50593e-14,,
714,3.98904,1.47905e-13,,
715,3.99452,-5.02037e-13,,
716,4.0,-3.35825e-11,,
717,4.00658,-3.19647e-09,,
718,4.01429,9.67087e-07,,
